
Integration time [ms]:   0,100
Averaging Nr. [scans]: 100
Smoothing Nr. [pixels]: 0
Data measured with spectrometer [name]: 7514292SP
Wave   ;Sample   ;Dark     ;Reference
[nm]   ;[counts] ;[counts] ;[counts] 

142,358;  531,480;  530,150;  645,000
142,965;  616,970;  613,480;  709,000
143,571;  594,220;  592,470;  674,000
144,178;  611,700;  609,270;  688,000
144,784;  634,010;  631,260;  724,000
145,390;  626,140;  625,280;  706,000
145,996;  625,650;  623,710;  726,000
146,603;  628,620;  625,220;  725,000
147,209;  616,820;  614,320;  712,000
147,815;  618,760;  614,340;  726,000
148,421;  612,810;  608,900;  699,000
149,027;  630,620;  628,000;  727,000
149,633;  617,250;  612,910;  710,000
150,240;  629,570;  628,010;  746,000
150,846;  606,470;  603,200;  667,000
151,452;  639,890;  632,840;  727,000
152,058;  707,590;  661,640;  737,000
152,663;  682,580;  626,940;  713,000
153,269;  664,570;  609,780;  677,000
153,875;  682,390;  630,700;  721,000
154,481;  681,730;  628,260;  765,000
155,087;  676,520;  621,630;  728,000
155,693;  684,500;  629,190;  730,000
156,299;  696,810;  644,140;  746,000
156,904;  686,680;  631,930;  724,000
157,510;  691,120;  638,500;  738,000
158,116;  675,580;  625,920;  706,000
158,721;  680,000;  624,590;  711,000
159,327;  684,550;  629,560;  773,000
159,933;  695,350;  643,660;  702,000
160,538;  677,800;  624,860;  697,000
161,144;  674,710;  621,030;  699,000
161,749;  667,550;  616,200;  705,000
162,355;  669,640;  614,700;  696,000
162,960;  659,230;  606,870;  715,000
163,566;  663,540;  607,710;  686,000
164,171;  678,650;  627,820;  707,000
164,776;  697,120;  642,930;  778,000
165,382;  671,100;  619,610;  736,000
165,987;  669,050;  618,340;  717,000
166,592;  646,100;  594,260;  653,000
167,198;  663,040;  611,680;  655,000
167,803;  647,830;  594,740;  663,000
168,408;  661,830;  610,190;  674,000
169,013;  654,590;  603,770;  724,000
169,618;  666,200;  614,920;  680,000
170,224;  647,420;  596,180;  687,000
170,829;  626,040;  574,330;  683,000
171,434;  664,790;  614,340;  727,000
172,039;  689,740;  636,480;  704,000
172,644;  646,290;  596,260;  688,000
173,249;  683,850;  631,380;  719,000
173,854;  651,320;  597,110;  701,000
174,458;  656,860;  604,550;  689,000
175,063;  640,700;  589,420;  652,000
175,668;  659,280;  611,980;  742,000
176,273;  638,220;  586,560;  683,000
176,878;  675,050;  624,930;  692,000
177,483;  647,090;  598,160;  700,000
178,087;  652,930;  603,060;  658,000
178,692;  657,620;  606,360;  685,000
179,297;  653,660;  603,260;  689,000
179,901;  649,360;  600,850;  668,000
180,506;  667,200;  616,550;  668,000
181,111;  637,640;  590,000;  661,000
181,715;  654,030;  604,050;  664,000
182,320;  652,690;  603,130;  660,000
182,924;  643,450;  594,520;  676,000
183,529;  626,370;  575,130;  638,000
184,133;  673,450;  622,960;  704,000
184,737;  637,110;  585,540;  676,000
185,342;  651,420;  600,880;  660,000
185,946;  630,190;  580,130;  640,000
186,550;  630,800;  582,100;  659,000
187,155;  633,240;  582,970;  642,000
187,759;  644,870;  591,550;  686,000
188,363;  646,590;  599,360;  712,000
188,967;  663,700;  612,810;  700,000
189,572;  631,400;  579,990;  649,000
190,176;  647,190;  600,010;  711,000
190,780;  648,890;  598,880;  705,000
191,384;  634,270;  586,420;  682,000
191,988;  641,790;  590,730;  686,000
192,592;  647,290;  594,920;  706,000
193,196;  662,190;  610,330;  721,000
193,800;  653,080;  600,050;  702,000
194,404;  634,060;  582,900;  679,000
195,008;  657,110;  606,800;  691,000
195,612;  633,890;  583,100;  703,000
196,215;  666,550;  617,620;  722,000
196,819;  651,160;  602,800;  689,000
197,423;  639,620;  591,750;  671,000
198,027;  632,520;  588,120;  671,000
198,631;  632,450;  584,490;  705,000
199,234;  634,160;  587,470;  683,000
199,838;  652,490;  609,700;  708,000
200,442;  630,680;  582,290;  665,000
201,045;  642,200;  593,260;  645,000
201,649;  644,430;  597,480;  652,000
202,252;  645,820;  600,760;  681,000
202,856;  636,850;  588,700;  664,000
203,459;  667,060;  621,330;  692,000
204,063;  641,410;  594,530;  658,000
204,666;  667,350;  620,610;  724,000
205,270;  644,600;  595,500;  662,000
205,873;  646,460;  598,060;  652,000
206,476;  631,020;  579,050;  648,000
207,080;  660,550;  612,640;  683,000
207,683;  648,690;  597,280;  658,000
208,286;  682,620;  631,210;  725,000
208,889;  640,030;  586,290;  630,000
209,492;  624,770;  571,340;  650,000
210,096;  649,570;  590,060;  677,000
210,699;  672,010;  613,270;  671,000
211,302;  638,350;  574,680;  666,000
211,905;  673,590;  605,330;  679,000
212,508;  661,540;  588,640;  671,000
213,111;  682,930;  608,560;  668,000
213,714;  659,830;  571,960;  651,000
214,317;  682,100;  593,170;  645,000
214,920;  692,660;  588,060;  655,000
215,523;  703,720;  587,730;  651,000
216,126;  720,750;  580,980;  678,000
216,728;  787,710;  616,330;  703,000
217,331;  801,370;  586,710;  664,000
217,934;  859,300;  582,410;  655,000
218,537;  920,560;  564,910;  661,000
219,139; 1042,710;  601,270;  701,000
219,742; 1156,130;  599,500;  667,000
220,345; 1288,110;  601,780;  670,000
220,947; 1436,870;  592,800;  657,000
221,550; 1607,720;  588,880;  674,000
222,152; 1806,280;  597,870;  662,000
222,755; 2030,520;  605,880;  699,000
223,357; 2263,110;  600,170;  687,000
223,960; 2530,860;  608,960;  698,000
224,562; 2773,840;  599,080;  687,000
225,165; 3059,360;  609,150;  705,000
225,767; 3326,570;  591,710;  671,000
226,369; 3625,820;  593,200;  653,000
226,972; 3901,800;  591,390;  695,000
227,574; 4205,920;  612,290;  685,000
228,176; 4434,850;  575,760;  652,000
228,778; 4703,570;  577,910;  635,000
229,381; 4977,590;  612,850;  680,000
229,983; 5226,910;  587,970;  667,000
230,585; 5461,950;  601,360;  704,000
231,187; 5711,930;  620,730;  698,000
231,789; 5892,730;  585,140;  657,000
232,391; 6118,800;  611,120;  702,000
232,993; 6276,230;  592,310;  639,000
233,595; 6481,030;  595,790;  656,000
234,197; 6632,200;  581,790;  643,000
234,799; 6870,110;  628,660;  682,000
235,401; 7006,610;  608,610;  687,000
236,003; 7169,670;  598,880;  677,000
236,605; 7324,150;  594,550;  670,000
237,206; 7520,240;  599,210;  679,000
237,808; 7670,400;  613,340;  723,000
238,410; 7850,830;  602,640;  673,000
239,012; 7972,730;  576,590;  666,000
239,613; 8186,400;  620,060;  705,000
240,215; 8329,615;  611,070;  723,000
240,816; 8472,830;  602,080;  741,000
241,418; 8618,710;  590,320;  686,000
242,020; 8767,850;  610,080;  679,000
242,621; 8869,610;  593,020;  690,000
243,223; 8956,780;  605,110;  672,000
243,824; 9051,800;  605,230;  692,000
244,425; 9143,000;  594,700;  665,000
245,027; 9180,300;  579,310;  641,000
245,628; 9241,090;  606,000;  689,000
246,230; 9289,860;  611,080;  666,000
246,831; 9304,400;  593,730;  658,000
247,432; 9295,460;  588,230;  674,000
248,033; 9387,900;  598,090;  642,000
248,635; 9404,400;  606,520;  688,000
249,236; 9459,930;  623,870;  713,000
249,837; 9446,360;  575,130;  651,000
250,438; 9520,210;  602,020;  671,000
251,039; 9596,870;  612,360;  701,000
251,640; 9763,560;  622,190;  740,000
252,241; 9817,610;  599,120;  642,000
252,842; 9982,500;  615,660;  665,000
253,443;10124,190;  592,120;  667,000
254,044;10401,680;  614,830;  652,000
254,645;10633,490;  614,220;  696,000
255,246;10895,970;  605,840;  689,000
255,847;11171,160;  607,500;  692,000
256,447;11598,430;  610,910;  685,000
257,048;11958,730;  591,330;  676,000
257,649;12306,150;  601,920;  660,000
258,250;12741,800;  607,560;  686,000
258,850;13193,970;  612,830;  674,000
259,451;13661,460;  596,680;  672,000
260,052;14089,960;  611,100;  700,000
260,652;14439,850;  584,810;  656,000
261,253;14893,640;  604,250;  671,000
261,853;15294,300;  613,190;  721,000
262,454;15720,790;  597,280;  688,000
263,054;16114,340;  598,040;  646,000
263,655;16442,689;  616,020;  708,000
264,255;16789,080;  621,010;  699,000
264,855;17046,199;  590,260;  672,000
265,456;17304,061;  590,880;  674,000
266,056;17589,789;  614,020;  699,000
266,656;17786,811;  602,950;  684,000
267,257;18000,949;  604,490;  657,000
267,857;18132,449;  608,120;  658,000
268,457;18197,660;  589,640;  677,000
269,057;18254,900;  596,450;  671,000
269,657;18327,039;  603,410;  662,000
270,257;18216,760;  577,030;  662,000
270,857;18212,670;  583,960;  675,000
271,458;18093,730;  609,970;  716,000
272,058;18089,619;  615,040;  681,000
272,658;17897,029;  591,740;  667,000
273,257;17790,340;  583,280;  681,000
273,857;17661,961;  604,280;  681,000
274,457;17582,260;  599,030;  656,000
275,057;17429,400;  577,590;  646,000
275,657;17354,320;  591,310;  651,000
276,257;17344,539;  577,190;  658,000
276,856;17448,430;  606,150;  682,000
277,456;17535,189;  581,310;  648,000
278,056;17701,461;  587,720;  669,000
278,655;17924,650;  587,060;  657,000
279,255;18252,590;  605,450;  667,000
279,855;18440,270;  576,110;  675,000
280,454;18859,391;  583,750;  660,000
281,054;19322,500;  589,440;  662,000
281,653;19814,910;  583,450;  674,000
282,253;20235,270;  594,300;  685,000
282,852;20828,230;  597,670;  671,000
283,452;21416,381;  571,810;  652,000
284,051;21905,770;  572,970;  619,000
284,650;22431,449;  583,200;  645,000
285,250;23029,000;  599,710;  652,000
285,849;23482,340;  571,280;  623,000
286,448;23998,689;  578,570;  642,000
287,047;24405,961;  595,660;  667,000
287,646;24739,170;  598,790;  680,000
288,246;25021,740;  596,430;  684,000
288,845;25358,801;  592,370;  673,000
289,444;25695,461;  579,160;  657,000
290,043;26122,289;  607,460;  675,000
290,642;26275,789;  589,700;  644,000
291,241;26591,961;  586,750;  636,000
291,840;26735,779;  568,470;  688,000
292,439;27028,641;  577,960;  680,000
293,038;27249,631;  560,130;  665,000
293,637;27477,961;  561,890;  630,000
294,235;27484,350;  561,810;  642,000
294,834;27639,699;  579,400;  638,000
295,433;27580,660;  596,890;  642,000
296,032;27454,150;  581,330;  674,000
296,630;27353,250;  588,260;  669,000
297,229;27262,660;  576,390;  661,000
297,828;27035,381;  593,030;  657,000
298,426;26758,221;  601,580;  695,000
299,025;26220,789;  587,050;  659,000
299,623;25701,779;  594,890;  692,000
300,222;25341,961;  577,670;  644,000
300,820;24983,770;  593,890;  640,000
301,419;24768,910;  592,580;  813,000
302,017;24550,520;  587,490;  641,000
302,616;24347,150;  575,850;  674,000
303,214;24319,891;  587,870;  672,000
303,812;24097,650;  585,930;  646,000
304,411;24118,160;  584,610;  634,000
305,009;24155,010;  570,190;  636,000
305,607;24193,711;  581,140;  655,000
306,205;23967,670;  574,320;  630,000
306,803;23905,080;  582,940;  657,000
307,402;23886,830;  583,150;  661,000
308,000;23826,670;  587,070;  652,000
308,598;23741,439;  602,340;  655,000
309,196;23804,180;  594,520;  679,000
309,794;23771,369;  592,560;  660,000
310,392;23959,859;  589,960;  648,000
310,990;24007,070;  582,160;  672,000
311,588;24207,391;  561,100;  609,000
312,186;24375,949;  591,880;  657,000
312,783;24642,961;  597,300;  658,000
313,381;24853,660;  583,570;  648,000
313,979;25035,561;  601,340;  712,000
314,577;25118,910;  570,690;  642,000
315,174;25507,619;  583,780;  630,000
315,772;25612,381;  563,000;  625,000
316,370;25889,420;  565,550;  682,000
316,967;26163,570;  593,640;  676,000
317,565;26477,830;  598,520;  675,000
318,163;26723,381;  599,860;  727,000
318,760;27010,561;  575,210;  662,000
319,358;27082,590;  568,890;  655,000
319,955;27385,650;  592,990;  658,000
320,552;27521,301;  568,170;  641,000
321,150;27783,141;  603,990;  661,000
321,747;27868,381;  578,260;  629,000
322,344;27883,490;  577,130;  625,000
322,942;27886,721;  574,490;  635,000
323,539;28088,939;  594,980;  644,000
324,136;28120,490;  588,820;  656,000
324,733;28107,180;  558,720;  646,000
325,331;27997,670;  589,420;  686,000
325,928;27956,090;  593,360;  641,000
326,525;27714,410;  584,970;  666,000
327,122;27604,410;  588,900;  638,000
327,719;27158,270;  561,790;  635,000
328,316;26893,141;  590,710;  653,000
328,913;26550,100;  562,900;  626,000
329,510;26299,471;  589,300;  671,000
330,107;25782,689;  581,600;  641,000
330,704;25428,410;  584,500;  633,000
331,301;24909,240;  574,350;  598,000
331,897;24442,330;  578,090;  673,000
332,494;23884,801;  568,530;  647,000
333,091;23376,410;  597,850;  674,000
333,688;22940,340;  578,660;  620,000
334,284;22470,070;  579,540;  669,000
334,881;22072,211;  570,770;  624,000
335,478;21562,369;  581,020;  643,000
336,074;21166,740;  577,760;  625,000
336,671;20821,301;  594,860;  674,000
337,267;20395,180;  573,610;  646,000
337,864;20095,680;  574,970;  702,000
338,460;19751,770;  587,840;  701,000
339,057;19494,381;  589,020;  674,000
339,653;19254,910;  578,810;  651,000
340,249;19072,119;  593,540;  655,000
340,846;18824,240;  587,310;  633,000
341,442;18624,410;  587,860;  644,000
342,038;18433,770;  558,880;  615,000
342,634;18351,160;  600,250;  675,000
343,231;18255,369;  559,950;  639,000
343,827;18149,391;  569,580;  636,000
344,423;18157,350;  609,370;  690,000
345,019;18074,900;  587,310;  667,000
345,615;18021,811;  582,750;  629,000
346,211;18100,570;  591,140;  639,000
346,807;18113,109;  577,550;  630,000
347,403;18203,590;  586,870;  653,000
347,999;18273,119;  574,260;  633,000
348,595;18402,689;  600,180;  648,000
349,191;18505,170;  579,740;  647,000
349,786;18724,010;  590,650;  637,000
350,382;18761,891;  571,770;  638,000
350,978;18969,641;  580,330;  612,000
351,574;19056,670;  592,500;  668,000
352,169;19072,100;  583,510;  655,000
352,765;19198,150;  581,960;  666,000
353,361;19187,490;  572,680;  645,000
353,956;19219,840;  563,690;  616,000
354,552;19263,980;  575,390;  672,000
355,147;19346,789;  575,940;  615,000
355,743;19358,400;  600,520;  637,000
356,338;19307,820;  560,330;  620,000
356,934;19424,820;  577,120;  644,000
357,529;19455,631;  578,820;  626,000
358,125;19456,590;  591,320;  647,000
358,720;19506,461;  571,130;  650,000
359,315;19620,779;  600,630;  714,000
359,911;19569,670;  592,660;  666,000
360,506;19662,859;  592,240;  683,000
361,101;19728,010;  580,280;  649,000
361,696;19716,020;  611,190;  701,000
362,291;19685,119;  587,350;  657,000
362,886;19557,131;  583,970;  651,000
363,482;19588,320;  609,750;  693,000
364,077;19499,570;  582,530;  668,000
364,672;19426,740;  575,830;  630,000
365,267;19276,131;  578,100;  654,000
365,861;19138,971;  566,350;  649,000
366,456;19037,801;  601,220;  650,000
367,051;18911,740;  584,600;  640,000
367,646;18741,109;  591,030;  669,000
368,241;18538,619;  577,900;  601,000
368,836;18384,221;  573,390;  650,000
369,430;18183,561;  565,420;  623,000
370,025;18112,330;  606,320;  684,000
370,620;17895,711;  573,020;  660,000
371,214;17723,711;  598,150;  640,000
371,809;17561,039;  584,110;  637,000
372,404;17432,650;  591,050;  647,000
372,998;17144,721;  563,300;  634,000
373,593;16969,561;  572,290;  670,000
374,187;16690,070;  566,530;  648,000
374,782;16583,471;  642,570;  680,000
375,376;16306,080;  584,670;  645,000
375,970;16122,760;  610,690;  669,000
376,565;15875,640;  581,960;  651,000
377,159;15684,990;  580,820;  662,000
377,753;15494,590;  571,500;  654,000
378,348;15365,550;  571,230;  624,000
378,942;15150,420;  578,220;  670,000
379,536;15005,840;  589,850;  643,000
380,130;14877,770;  575,520;  637,000
380,724;14744,860;  588,440;  631,000
381,318;14601,800;  572,880;  624,000
381,912;14486,080;  564,050;  629,000
382,506;14360,190;  601,630;  665,000
383,100;14159,390;  590,840;  642,000
383,694;14005,150;  572,290;  625,000
384,288;13869,210;  581,530;  648,000
384,882;13698,850;  573,170;  626,000
385,476;13664,280;  590,730;  636,000
386,070;13539,610;  581,370;  653,000
386,663;13437,420;  581,540;  640,000
387,257;13399,160;  586,480;  652,000
387,851;13372,690;  587,230;  653,000
388,444;13388,900;  584,900;  636,000
389,038;13409,250;  581,780;  626,000
389,632;13486,510;  580,230;  620,000
390,225;13559,890;  603,050;  656,000
390,819;13645,410;  580,490;  664,000
391,412;13710,110;  574,510;  616,000
392,006;13741,690;  564,420;  651,000
392,599;13834,370;  570,030;  626,000
393,193;13961,940;  575,250;  606,000
393,786;14126,340;  587,780;  678,000
394,379;14148,640;  562,610;  620,000
394,973;14282,490;  595,990;  639,000
395,566;14372,010;  586,470;  657,000
396,159;14403,810;  566,180;  637,000
396,752;14470,050;  552,540;  635,000
397,346;14507,360;  572,800;  630,000
397,939;14513,420;  574,530;  607,000
398,532;14540,070;  584,900;  662,000
399,125;14520,240;  573,880;  622,000
399,718;14579,530;  579,750;  621,000
400,311;14650,120;  569,050;  607,000
400,904;14651,660;  557,100;  671,000
401,497;14704,700;  588,380;  655,000
402,090;14737,070;  560,220;  633,000
402,682;14601,160;  539,040;  586,000
403,275;14591,910;  572,950;  611,000
403,868;14411,340;  568,930;  625,000
404,461;14347,360;  585,460;  619,000
405,054;14146,860;  563,530;  604,000
405,646;14043,120;  578,860;  637,000
406,239;13933,710;  580,340;  625,000
406,832;13773,390;  568,660;  602,000
407,424;13647,910;  577,300;  665,000
408,017;13487,030;  582,140;  662,000
408,609;13294,850;  581,830;  632,000
409,202;13189,390;  561,530;  610,000
409,794;13197,120;  574,650;  599,000
410,387;13289,390;  581,190;  652,000
410,979;13506,930;  560,730;  613,000
411,571;13658,160;  583,940;  638,000
412,164;13666,240;  574,420;  623,000
412,756;13693,350;  600,560;  665,000
413,348;13695,450;  583,050;  778,000
413,940;13745,080;  594,900;  682,000
414,533;13760,350;  584,570;  625,000
415,125;13736,270;  582,670;  637,000
415,717;13665,800;  569,860;  642,000
416,309;13719,850;  594,790;  651,000
416,901;13722,010;  575,170;  627,000
417,493;13889,880;  590,880;  614,000
418,085;13935,190;  578,300;  628,000
418,677;14145,280;  599,610;  639,000
419,269;14301,390;  560,720;  653,000
419,861;14566,150;  597,230;  641,000
420,452;14778,630;  602,280;  687,000
421,044;14927,180;  609,840;  652,000
421,636;15038,440;  605,350;  661,000
422,228;15115,260;  591,690;  676,000
422,819;15218,530;  589,190;  654,000
423,411;15282,340;  605,440;  711,000
424,003;15289,200;  607,000;  660,000
424,594;15202,460;  581,130;  650,000
425,186;15107,510;  559,270;  652,000
425,777;15105,920;  575,150;  619,000
426,369;15006,610;  555,270;  639,000
426,960;14976,880;  572,760;  610,000
427,552;14899,800;  578,770;  611,000
428,143;14817,580;  591,680;  660,000
428,735;14688,160;  601,260;  679,000
429,326;14524,040;  581,760;  637,000
429,917;14446,540;  554,920;  617,000
430,508;14492,500;  599,080;  659,000
431,100;14452,800;  583,850;  636,000
431,691;14344,890;  565,780;  611,000
432,282;14325,250;  572,380;  628,000
432,873;14275,800;  573,690;  618,000
433,464;14042,310;  575,650;  627,000
434,055;13911,490;  589,260;  626,000
434,646;13659,870;  565,460;  631,000
435,237;13465,890;  578,610;  664,000
435,828;13241,110;  573,970;  637,000
436,419;13070,460;  593,990;  609,000
437,010;12977,220;  584,890;  631,000
437,601;12807,730;  579,480;  635,000
438,192;12714,410;  577,870;  616,000
438,782;12646,420;  576,350;  632,000
439,373;12600,790;  585,820;  622,000
439,964;12491,730;  580,550;  645,000
440,554;12360,360;  545,600;  611,000
441,145;12368,930;  578,330;  640,000
441,736;12339,920;  562,960;  590,000
442,326;12403,340;  592,190;  633,000
442,917;12339,500;  585,620;  630,000
443,507;12336,940;  588,720;  627,000
444,098;12304,540;  587,830;  606,000
444,688;12210,570;  570,520;  601,000
445,279;12032,110;  568,900;  628,000
445,869;11834,700;  576,300;  621,000
446,459;11686,040;  575,490;  639,000
447,049;11529,260;  596,260;  657,000
447,640;11288,170;  586,730;  654,000
448,230;11039,020;  569,120;  628,000
448,820;10847,140;  575,410;  600,000
449,410;10666,850;  585,830;  637,000
450,000;10516,330;  590,260;  620,000
450,590;10291,220;  577,350;  649,000
451,181;10159,270;  582,400;  642,000
451,771; 9974,720;  583,300;  624,000
452,361; 9778,200;  550,720;  598,000
452,950; 9671,300;  602,080;  646,000
453,540; 9532,500;  562,510;  612,000
454,130; 9397,460;  563,990;  637,000
454,720; 9323,930;  579,850;  652,000
455,310; 9284,200;  590,390;  633,000
455,900; 9192,710;  564,830;  601,000
456,489; 9118,180;  562,200;  602,000
457,079; 9135,680;  585,660;  624,000
457,669; 9101,510;  573,960;  600,000
458,258; 9065,050;  575,060;  608,000
458,848; 9035,560;  563,350;  600,000
459,437; 9003,150;  584,450;  637,000
460,027; 9004,410;  569,660;  610,000
460,616; 9028,150;  579,150;  620,000
461,206; 9069,980;  580,730;  644,000
461,795; 9071,340;  565,430;  626,000
462,385; 9121,160;  580,020;  640,000
462,974; 9158,050;  586,180;  659,000
463,563; 9136,400;  578,480;  598,000
464,153; 9109,400;  573,310;  628,000
464,742; 9097,830;  580,940;  623,000
465,331; 8985,420;  581,290;  620,000
465,920; 8903,570;  587,020;  639,000
466,509; 8839,240;  567,030;  639,000
467,098; 8767,380;  596,630;  672,000
467,687; 8610,370;  556,690;  621,000
468,276; 8618,300;  581,160;  622,000
468,865; 8499,090;  570,680;  591,000
469,454; 8404,450;  559,610;  589,000
470,043; 8268,180;  566,330;  614,000
470,632; 8178,580;  566,610;  610,000
471,221; 8076,670;  538,740;  601,000
471,810; 8054,120;  565,630;  635,000
472,399; 8000,600;  547,670;  614,000
472,987; 7998,600;  571,860;  629,000
473,576; 8062,510;  563,280;  639,000
474,165; 8110,550;  567,760;  618,000
474,753; 8125,750;  550,790;  607,000
475,342; 8230,990;  561,870;  603,000
475,931; 8376,310;  575,070;  620,000
476,519; 8446,760;  544,710;  583,000
477,108; 8583,900;  573,970;  639,000
477,696; 8673,640;  585,480;  607,000
478,284; 8709,600;  562,410;  605,000
478,873; 8788,910;  565,570;  648,000
479,461; 8835,210;  560,190;  623,000
480,049; 8861,860;  559,280;  615,000
480,638; 9032,560;  579,190;  633,000
481,226; 9377,380;  566,130;  602,000
481,814;10043,870;  547,110;  572,000
482,402;10668,820;  580,340;  639,000
482,991;11233,180;  566,890;  607,000
483,579;11827,130;  563,430;  594,000
484,167;12281,240;  546,630;  619,000
484,755;12591,360;  587,580;  622,000
485,343;12531,680;  577,400;  607,000
485,931;12545,410;  556,480;  603,000
486,519;12544,030;  549,230;  591,000
487,106;12573,190;  574,470;  643,000
487,694;12522,650;  569,150;  617,000
488,282;12458,160;  576,850;  623,000
488,870;12316,500;  563,070;  569,000
489,458;12056,210;  570,400;  599,000
490,045;11355,050;  568,540;  591,000
490,633;10610,850;  553,610;  592,000
491,221; 9879,120;  558,080;  585,000
491,808; 9210,270;  556,740;  616,000
492,396; 8560,890;  564,010;  595,000
492,983; 8238,620;  581,650;  653,000
493,571; 8102,310;  559,580;  626,000
494,158; 8065,470;  581,120;  622,000
494,746; 7977,030;  538,650;  584,000
495,333; 7972,780;  547,190;  605,000
495,921; 7975,020;  571,960;  646,000
496,508; 7919,060;  551,260;  585,000
497,095; 7953,060;  575,750;  619,000
497,682; 7981,620;  585,770;  626,000
498,270; 7961,770;  582,270;  614,000
498,857; 7935,150;  574,530;  647,000
499,444; 7950,910;  576,030;  602,000
500,031; 7933,490;  577,170;  623,000
500,618; 7916,360;  578,150;  605,000
501,205; 7928,890;  603,240;  631,000
501,792; 7851,070;  574,820;  625,000
502,379; 7803,140;  570,850;  653,000
502,966; 7766,810;  563,990;  615,000
503,553; 7753,070;  575,100;  642,000
504,140; 7730,890;  582,440;  617,000
504,727; 7670,200;  580,180;  640,000
505,313; 7599,460;  556,020;  616,000
505,900; 7562,580;  581,050;  643,000
506,487; 7492,440;  590,000;  637,000
507,073; 7368,360;  577,590;  634,000
507,660; 7264,750;  577,900;  638,000
508,247; 7180,770;  596,330;  628,000
508,833; 7067,470;  583,480;  627,000
509,420; 6953,910;  578,970;  610,000
510,006; 6820,840;  584,920;  629,000
510,593; 6714,380;  586,330;  623,000
511,179; 6595,570;  581,470;  628,000
511,765; 6493,190;  597,340;  655,000
512,352; 6326,590;  570,400;  647,000
512,938; 6219,480;  592,740;  626,000
513,524; 6079,250;  579,900;  633,000
514,111; 5964,760;  577,010;  610,000
514,697; 5854,540;  580,270;  617,000
515,283; 5775,860;  580,420;  619,000
515,869; 5649,280;  570,350;  611,000
516,455; 5600,740;  594,260;  648,000
517,041; 5492,710;  589,030;  619,000
517,627; 5433,470;  594,890;  628,000
518,213; 5384,390;  589,220;  613,000
518,799; 5319,190;  582,030;  597,000
519,385; 5272,600;  591,880;  638,000
519,971; 5223,660;  590,410;  645,000
520,557; 5200,410;  584,610;  618,000
521,143; 5175,570;  589,470;  618,000
521,728; 5155,270;  585,730;  654,000
522,314; 5169,640;  587,390;  623,000
522,900; 5173,210;  581,690;  634,000
523,485; 5206,950;  601,770;  639,000
524,071; 5206,020;  561,000;  593,000
524,657; 5318,570;  591,360;  661,000
525,242; 5373,070;  608,510;  659,000
525,828; 5469,490;  597,410;  673,000
526,413; 5559,780;  593,980;  617,000
526,999; 5689,870;  594,290;  642,000
527,584; 5775,520;  578,170;  596,000
528,169; 5917,470;  582,140;  617,000
528,755; 6042,280;  592,140;  638,000
529,340; 6200,280;  618,630;  646,000
529,925; 6274,570;  588,890;  627,000
530,510; 6453,670;  610,600;  624,000
531,096; 6555,350;  603,780;  666,000
531,681; 6648,960;  581,120;  589,000
532,266; 6757,670;  597,310;  677,000
532,851; 6771,330;  573,470;  607,000
533,436; 6866,000;  609,320;  612,000
534,021; 6856,590;  569,610;  579,000
534,606; 6906,290;  572,980;  648,000
535,191; 6938,730;  608,100;  654,000
535,776; 6921,600;  576,380;  591,000
536,361; 6921,700;  589,560;  626,000
536,945; 6931,400;  588,610;  601,000
537,530; 6938,300;  581,010;  644,000
538,115; 6955,820;  594,400;  631,000
538,700; 6920,830;  592,310;  611,000
539,284; 6924,470;  574,720;  611,000
539,869; 6978,640;  593,380;  626,000
540,454; 6984,510;  590,660;  638,000
541,038; 7032,590;  568,900;  607,000
541,623; 7109,610;  586,930;  627,000
542,207; 7153,980;  586,660;  601,000
542,792; 7236,980;  574,870;  601,000
543,376; 7314,030;  591,060;  613,000
543,960; 7400,310;  606,650;  699,000
544,545; 7432,710;  553,850;  617,000
545,129; 7537,020;  574,770;  590,000
545,713; 7638,680;  574,750;  638,000
546,298; 7727,600;  565,040;  582,000
546,882; 7813,220;  563,920;  593,000
547,466; 7904,660;  554,310;  604,000
548,050; 8061,710;  584,320;  629,000
548,634; 8129,930;  554,270;  579,000
549,218; 8351,190;  589,640;  629,000
549,802; 8472,610;  559,930;  588,000
550,386; 8711,220;  583,990;  624,000
550,970; 8927,920;  585,900;  618,000
551,554; 9098,150;  561,640;  601,000
552,138; 9396,610;  584,410;  620,000
552,722; 9641,380;  560,840;  574,000
553,305; 9905,780;  553,050;  598,000
553,889;10230,420;  575,220;  619,000
554,473;10525,090;  571,530;  602,000
555,057;10857,050;  579,900;  600,000
555,640;11136,610;  554,830;  609,000
556,224;11509,960;  578,850;  617,000
556,807;11818,610;  566,130;  605,000
557,391;12126,790;  558,400;  591,000
557,974;12385,890;  580,530;  600,000
558,558;12733,250;  579,880;  602,000
559,141;12968,390;  565,950;  576,000
559,725;13270,840;  551,170;  592,000
560,308;13503,080;  551,360;  585,000
560,891;13850,510;  575,040;  588,000
561,474;14091,670;  569,270;  601,000
562,058;14398,850;  573,050;  602,000
562,641;14632,680;  563,330;  598,000
563,224;14916,030;  560,260;  604,000
563,807;15196,710;  557,580;  604,000
564,390;15513,200;  571,970;  602,000
564,973;15884,810;  580,900;  643,000
565,556;16223,920;  570,700;  599,000
566,139;16685,971;  584,230;  612,000
566,722;17192,869;  568,010;  592,000
567,305;17592,131;  582,170;  607,000
567,888;18072,410;  578,970;  625,000
568,471;18603,990;  576,970;  609,000
569,054;19137,971;  570,220;  580,000
569,636;19683,721;  559,850;  594,000
570,219;20242,039;  554,790;  589,000
570,802;20861,410;  588,300;  598,000
571,384;21379,980;  577,730;  604,000
571,967;21912,141;  580,570;  616,000
572,549;22452,850;  582,840;  615,000
573,132;23027,689;  579,060;  608,000
573,714;23626,721;  590,830;  623,000
574,297;24046,430;  575,300;  590,000
574,879;24538,391;  575,930;  608,000
575,462;24970,631;  563,350;  597,000
576,044;25417,520;  577,370;  606,000
576,626;25853,439;  570,270;  593,000
577,209;26371,961;  586,640;  623,000
577,791;26766,061;  572,580;  612,000
578,373;27271,551;  591,500;  636,000
578,955;27740,051;  590,300;  629,000
579,537;28094,301;  569,550;  620,000
580,119;28244,529;  547,870;  575,000
580,701;28642,859;  579,580;  610,000
581,283;28943,680;  557,940;  590,000
581,865;29196,100;  576,850;  600,000
582,447;29546,270;  590,980;  624,000
583,029;29752,910;  576,580;  583,000
583,611;30117,320;  570,440;  605,000
584,193;30475,980;  576,800;  617,000
584,775;30603,500;  566,240;  626,000
585,356;30851,381;  592,700;  642,000
585,938;31131,350;  579,310;  615,000
586,520;31298,100;  579,320;  596,000
587,101;31461,080;  566,300;  618,000
587,683;31746,461;  582,810;  615,000
588,264;31816,471;  563,120;  617,000
588,846;32263,410;  572,030;  667,000
589,427;32605,730;  585,320;  622,000
590,009;32863,031;  578,430;  593,000
590,590;33025,980;  561,950;  593,000
591,172;33455,691;  571,670;  586,000
591,753;33508,391;  568,080;  589,000
592,334;33828,000;  583,990;  615,000
592,915;34172,500;  577,250;  632,000
593,497;34369,809;  559,980;  572,000
594,078;34638,738;  585,490;  621,000
594,659;34944,770;  580,200;  604,000
595,240;35094,051;  591,360;  621,000
595,821;35483,109;  576,760;  598,000
596,402;35671,340;  587,950;  598,000
596,983;35863,012;  580,040;  610,000
597,564;36059,371;  585,900;  610,000
598,145;36237,520;  574,780;  588,000
598,726;36391,449;  557,790;  585,000
599,307;36563,840;  587,060;  597,000
599,887;36829,340;  576,660;  599,000
600,468;36963,828;  587,520;  631,000
601,049;37070,211;  569,420;  590,000
601,629;37317,430;  569,670;  586,000
602,210;37290,531;  578,070;  594,000
602,791;37654,441;  615,290;  647,000
603,371;37847,949;  592,240;  605,000
603,952;38036,199;  609,650;  623,000
604,532;38081,641;  588,450;  603,000
605,113;38234,359;  575,400;  589,000
605,693;38386,809;  581,780;  613,000
606,273;38518,422;  587,620;  630,000
606,854;38604,199;  568,040;  589,000
607,434;38538,148;  564,950;  595,000
608,014;38746,879;  587,400;  590,000
608,595;38880,352;  585,790;  600,000
609,175;38818,070;  597,690;  601,000
609,755;39105,879;  585,380;  628,000
610,335;39051,801;  573,060;  587,000
610,915;39084,480;  554,950;  569,000
611,495;39180,000;  593,770;  644,000
612,075;39227,070;  595,900;  604,000
612,655;39084,199;  553,200;  576,000
613,235;39083,840;  580,890;  653,000
613,815;39106,770;  577,360;  600,000
614,395;38846,570;  583,290;  602,000
614,974;38943,180;  572,230;  586,000
615,554;38872,789;  565,370;  578,000
616,134;38837,160;  579,470;  608,000
616,714;38691,172;  585,920;  634,000
617,293;38732,719;  557,980;  579,000
617,873;38499,211;  571,440;  575,000
618,452;38457,309;  559,370;  581,000
619,032;38307,441;  571,350;  606,000
619,611;38160,059;  555,640;  587,000
620,191;38203,281;  587,150;  621,000
620,770;38023,059;  571,660;  623,000
621,350;37944,469;  562,450;  606,000
621,929;37815,340;  568,440;  597,000
622,508;37823,320;  581,340;  605,000
623,088;37782,469;  574,310;  592,000
623,667;37661,090;  556,680;  579,000
624,246;37634,578;  566,910;  563,000
624,825;37487,570;  572,620;  600,000
625,404;37607,680;  553,290;  566,000
625,983;37427,141;  566,920;  598,000
626,562;37487,059;  593,100;  643,000
627,141;37612,531;  577,830;  597,000
627,720;37539,020;  584,740;  612,000
628,299;37408,020;  570,770;  585,000
628,878;37501,852;  581,740;  581,000
629,457;37476,031;  573,350;  631,000
630,036;37376,410;  553,310;  570,000
630,614;37400,789;  582,890;  604,000
631,193;37574,621;  580,070;  608,000
631,772;37620,898;  574,830;  594,000
632,350;37629,371;  575,660;  611,000
632,929;37737,148;  573,520;  607,000
633,508;37794,621;  557,850;  570,000
634,086;38066,449;  588,070;  582,000
634,665;37997,520;  567,790;  579,000
635,243;37938,602;  575,160;  621,000
635,822;38107,320;  580,820;  617,000
636,400;38228,070;  578,200;  609,000
636,978;38265,020;  567,510;  585,000
637,557;38204,578;  574,670;  599,000
638,135;38203,711;  566,110;  590,000
638,713;38323,340;  572,150;  602,000
639,291;38291,270;  566,720;  596,000
639,869;38409,969;  588,160;  608,000
640,447;38227,441;  573,340;  589,000
641,025;38328,859;  599,290;  625,000
641,604;38232,738;  580,390;  619,000
642,181;38335,891;  591,390;  604,000
642,759;38131,809;  564,000;  588,000
643,337;38047,398;  569,610;  586,000
643,915;37895,609;  575,020;  612,000
644,493;37981,871;  566,640;  587,000
645,071;37764,738;  574,090;  592,000
645,649;37935,090;  594,870;  608,000
646,226;37750,539;  563,580;  599,000
646,804;37564,039;  566,450;  586,000
647,382;37543,750;  560,290;  583,000
647,959;37418,559;  562,210;  592,000
648,537;37430,391;  578,890;  616,000
649,114;37468,512;  600,890;  605,000
649,692;37335,340;  577,250;  631,000
650,269;37163,738;  586,470;  633,000
650,847;37085,121;  564,550;  576,000
651,424;37200,020;  585,840;  604,000
652,001;37562,871;  591,410;  616,000
652,579;37793,980;  585,030;  581,000
653,156;37957,539;  565,130;  620,000
653,733;38195,531;  569,150;  626,000
654,310;38387,051;  561,870;  596,000
654,887;38613,328;  591,370;  610,000
655,464;38713,969;  558,150;  578,000
656,041;38936,859;  578,360;  598,000
656,618;38973,820;  581,650;  587,000
657,195;39252,621;  571,320;  576,000
657,772;39278,461;  576,400;  597,000
658,349;39548,980;  582,470;  623,000
658,926;39632,090;  564,580;  575,000
659,503;39791,320;  568,060;  577,000
660,080;39761,480;  571,360;  600,000
660,656;39701,719;  568,270;  580,000
661,233;39605,410;  579,240;  609,000
661,810;39545,578;  567,300;  605,000
662,386;39467,820;  573,460;  600,000
662,963;39481,109;  567,180;  594,000
663,539;39494,891;  593,580;  630,000
664,116;39730,281;  583,490;  616,000
664,692;39736,449;  579,640;  606,000
665,269;39754,578;  577,880;  606,000
665,845;39693,320;  543,670;  555,000
666,422;39709,141;  566,740;  597,000
666,998;39742,129;  560,740;  582,000
667,574;39837,172;  572,420;  617,000
668,150;39803,039;  564,020;  587,000
668,727;39978,570;  572,510;  609,000
669,303;39775,891;  572,020;  614,000
669,879;39846,191;  576,590;  617,000
670,455;39785,559;  550,540;  588,000
671,031;39860,500;  564,100;  611,000
671,607;39871,910;  554,020;  588,000
672,183;39890,359;  553,720;  571,000
672,759;39951,660;  561,070;  584,000
673,335;39825,930;  543,430;  560,000
673,910;39896,809;  562,520;  599,000
674,486;40005,340;  561,540;  578,000
675,062;39953,180;  562,790;  615,000
675,638;40089,078;  576,820;  592,000
676,213;39987,828;  560,040;  612,000
676,789;40067,520;  568,050;  591,000
677,365;40179,219;  578,940;  591,000
677,940;40191,969;  566,000;  571,000
678,516;40079,262;  525,660;  556,000
679,091;40277,969;  575,460;  580,000
679,667;40228,910;  571,500;  595,000
680,242;40309,531;  554,170;  585,000
680,817;40343,762;  543,600;  549,000
681,393;40427,980;  570,790;  596,000
681,968;40569,398;  566,820;  584,000
682,543;40646,969;  563,210;  569,000
683,118;40808,711;  565,950;  598,000
683,694;40916,230;  570,060;  586,000
684,269;41075,941;  572,210;  598,000
684,844;41023,738;  563,560;  616,000
685,419;41099,520;  547,130;  592,000
685,994;41380,980;  550,630;  547,000
686,569;41538,289;  570,180;  583,000
687,144;41473,340;  552,530;  597,000
687,719;41798,730;  562,100;  580,000
688,293;41980,531;  574,780;  604,000
688,868;42049,109;  580,440;  577,000
689,443;42265,559;  578,000;  595,000
690,018;42372,320;  568,260;  600,000
690,592;42471,980;  591,060;  620,000
691,167;42528,898;  539,070;  560,000
691,742;42825,309;  580,600;  616,000
692,316;42629,781;  569,380;  603,000
692,891;42865,648;  584,170;  598,000
693,465;42888,090;  558,220;  586,000
694,040;43005,828;  575,170;  644,000
694,614;43086,828;  583,530;  622,000
695,188;43100,949;  550,310;  575,000
695,763;43323,109;  553,560;  561,000
696,337;43341,891;  559,100;  593,000
696,911;43562,789;  561,700;  584,000
697,485;43547,230;  571,890;  609,000
698,060;43757,211;  570,750;  597,000
698,634;43608,820;  545,480;  554,000
699,208;43857,910;  552,640;  564,000
699,782;43869,500;  555,580;  586,000
700,356;43945,531;  579,010;  596,000
700,930;44129,680;  576,080;  584,000
701,504;44128,609;  562,910;  571,000
702,078;44159,590;  559,540;  596,000
702,651;44364,309;  571,700;  595,000
703,225;44501,148;  566,080;  582,000
703,799;44629,941;  577,330;  628,000
704,373;44695,391;  562,740;  587,000
704,946;44784,102;  591,060;  640,000
705,520;44738,691;  564,180;  577,000
706,094;44865,578;  558,760;  553,000
706,667;45095,988;  570,650;  564,000
707,241;45124,180;  576,240;  583,000
707,814;45095,102;  571,450;  574,000
708,388;45008,121;  555,410;  554,000
708,961;45301,801;  584,970;  584,000
709,534;45406,859;  551,190;  568,000
710,108;45363,441;  565,990;  587,000
710,681;45464,980;  571,010;  571,000
711,254;45597,551;  578,620;  613,000
711,827;45779,660;  583,510;  614,000
712,401;45910,230;  574,290;  600,000
712,974;45957,070;  580,170;  589,000
713,547;45871,531;  568,680;  591,000
714,120;45944,148;  572,010;  586,000
714,693;46256,641;  584,930;  595,000
715,266;46091,852;  572,380;  584,000
715,839;46086,980;  570,550;  602,000
716,411;46293,230;  589,510;  607,000
716,984;46044,719;  565,880;  607,000
717,557;46371,910;  564,120;  609,000
718,130;46337,609;  552,270;  566,000
718,703;46427,070;  582,400;  581,000
719,275;46581,691;  574,910;  595,000
719,848;46685,352;  569,320;  601,000
720,420;46648,660;  579,150;  596,000
720,993;46833,172;  558,020;  569,000
721,566;46997,059;  560,110;  576,000
722,138;47039,379;  565,680;  589,000
722,710;47156,621;  586,760;  602,000
723,283;47231,121;  554,440;  564,000
723,855;47445,609;  569,530;  594,000
724,427;47531,398;  565,420;  570,000
725,000;47467,109;  557,920;  592,000
725,572;47691,859;  552,570;  587,000
726,144;47931,590;  572,850;  614,000
726,716;47966,039;  568,560;  597,000
727,288;48115,469;  564,260;  573,000
727,860;48271,020;  558,180;  588,000
728,432;48254,969;  569,040;  591,000
729,005;48459,629;  557,360;  599,000
729,576;48803,430;  582,980;  600,000
730,148;48587,289;  560,990;  564,000
730,720;48956,941;  585,900;  590,000
731,292;48983,691;  555,300;  573,000
731,864;49064,398;  566,010;  549,000
732,436;49292,480;  579,250;  572,000
733,007;49316,352;  549,690;  558,000
733,579;49185,262;  549,650;  541,000
734,151;49164,070;  582,830;  582,000
734,722;48930,102;  559,730;  578,000
735,294;48693,531;  572,920;  600,000
735,865;48496,941;  570,110;  583,000
736,437;48495,172;  556,430;  596,000
737,008;48778,719;  586,520;  583,000
737,579;48952,648;  553,920;  575,000
738,151;49137,410;  537,800;  562,000
738,722;49547,031;  563,510;  583,000
739,293;49995,871;  550,520;  566,000
739,864;50215,148;  541,010;  569,000
740,436;50555,391;  547,110;  577,000
741,007;50725,531;  565,420;  561,000
741,578;50870,578;  564,660;  573,000
742,149;50875,750;  555,660;  559,000
742,720;50897,961;  552,090;  552,000
743,291;51069,070;  550,000;  558,000
743,862;50867,102;  541,280;  558,000
744,433;50998,148;  565,960;  570,000
745,003;51245,379;  565,850;  573,000
745,574;51117,301;  555,030;  584,000
746,145;51000,359;  550,100;  571,000
746,716;51119,109;  560,200;  577,000
747,286;51215,770;  549,920;  567,000
747,857;51318,531;  557,290;  586,000
748,428;51117,090;  545,640;  606,000
748,998;51147,352;  557,140;  557,000
749,569;51066,512;  546,380;  580,000
750,139;51429,988;  562,950;  583,000
750,710;51225,039;  550,370;  569,000
751,280;51115,590;  567,170;  571,000
751,850;51142,398;  563,200;  570,000
752,421;51154,121;  569,930;  604,000
752,991;51076,000;  573,420;  605,000
753,561;51050,801;  553,680;  592,000
754,131;51066,949;  552,670;  567,000
754,701;50936,559;  546,290;  585,000
755,272;50892,309;  557,690;  542,000
755,842;50996,469;  576,940;  588,000
756,412;50878,211;  557,020;  554,000
756,982;50905,270;  563,270;  581,000
757,552;50986,629;  568,790;  604,000
758,121;50883,340;  573,950;  597,000
758,691;51042,531;  564,800;  598,000
759,261;50918,672;  583,010;  595,000
759,831;50901,410;  569,710;  568,000
760,401;50920,949;  571,910;  590,000
760,970;50941,719;  557,700;  580,000
761,540;50943,879;  575,460;  577,000
762,110;50651,520;  560,390;  585,000
762,679;50887,059;  553,590;  574,000
763,249;50908,289;  583,450;  579,000
763,818;50767,820;  582,050;  608,000
764,388;50753,172;  572,910;  566,000
764,957;50676,262;  554,260;  594,000
765,526;50756,371;  546,270;  569,000
766,096;50709,520;  569,320;  601,000
766,665;50715,449;  580,900;  620,000
767,234;50707,820;  590,730;  615,000
767,803;50736,531;  589,430;  625,000
768,372;50965,898;  577,570;  584,000
768,942;50762,270;  586,990;  580,000
769,511;50689,781;  575,860;  584,000
770,080;50816,160;  572,150;  599,000
770,649;50849,328;  577,130;  592,000
771,218;50856,781;  590,430;  604,000
771,787;50832,641;  582,780;  612,000
772,355;50746,770;  575,880;  598,000
772,924;50651,719;  577,170;  591,000
773,493;50808,629;  605,510;  612,000
774,062;50679,629;  588,790;  602,000
774,630;50629,191;  571,440;  616,000
775,199;50673,379;  577,390;  593,000
775,768;50647,352;  581,610;  613,000
776,336;50807,422;  603,260;  630,000
776,905;50559,852;  592,300;  623,000
777,473;50551,809;  576,390;  590,000
778,042;50619,930;  579,920;  622,000
778,610;50645,109;  594,170;  620,000
779,178;50665,809;  591,780;  661,000
779,747;50492,750;  585,080;  597,000
780,315;50438,750;  592,670;  595,000
780,883;50612,590;  577,250;  591,000
781,451;50448,469;  586,900;  624,000
782,020;50297,129;  584,990;  610,000
782,588;50395,641;  599,560;  608,000
783,156;50458,680;  590,220;  595,000
783,724;50441,602;  589,250;  591,000
784,292;50196,301;  585,850;  604,000
784,860;50199,641;  599,430;  613,000
785,428;50089,961;  585,540;  600,000
785,995;49811,809;  592,310;  587,000
786,563;49791,059;  579,630;  591,000
787,131;49774,391;  590,330;  612,000
787,699;49656,551;  613,640;  622,000
788,267;49663,320;  585,980;  572,000
788,834;49335,270;  569,460;  581,000
789,402;49185,070;  587,010;  597,000
789,969;48983,141;  581,000;  604,000
790,537;48802,871;  568,240;  599,000
791,104;48701,961;  583,210;  588,000
791,672;48598,559;  600,110;  632,000
792,239;48223,680;  570,540;  600,000
792,807;48174,539;  581,980;  608,000
793,374;48039,000;  613,610;  645,000
793,941;47970,738;  604,140;  618,000
794,508;47791,238;  602,660;  642,000
795,076;47339,129;  563,310;  588,000
795,643;47237,852;  606,440;  612,000
796,210;47002,148;  604,600;  634,000
796,777;46869,641;  601,310;  635,000
797,344;46476,059;  578,650;  613,000
797,911;46230,621;  579,410;  608,000
798,478;45899,410;  578,880;  588,000
799,045;45748,859;  592,140;  633,000
799,612;45533,691;  567,410;  623,000
800,178;45202,340;  578,790;  626,000
800,745;45099,840;  569,230;  588,000
801,312;44703,738;  584,090;  610,000
801,878;44480,160;  570,590;  600,000
802,445;44233,262;  574,880;  615,000
803,012;44029,801;  589,040;  633,000
803,578;43704,469;  584,100;  594,000
804,145;43414,578;  569,150;  579,000
804,711;43380,090;  582,160;  624,000
805,278;43038,102;  587,070;  595,000
805,844;42634,602;  563,400;  574,000
806,410;42584,680;  581,020;  617,000
806,977;42347,922;  581,460;  585,000
807,543;42113,910;  578,540;  610,000
808,109;41683,590;  587,300;  629,000
808,675;41522,531;  576,080;  603,000
809,242;41295,871;  570,200;  612,000
809,808;41027,988;  579,690;  618,000
810,374;40946,469;  587,550;  609,000
810,940;40692,531;  593,430;  628,000
811,506;40488,359;  557,770;  559,000
812,072;40297,469;  594,180;  600,000
812,637;40036,391;  598,630;  629,000
813,203;39821,359;  578,630;  606,000
813,769;39756,750;  577,820;  606,000
814,335;39590,781;  594,040;  617,000
814,901;39362,078;  579,450;  576,000
815,466;39048,422;  570,890;  604,000
816,032;39051,449;  580,670;  609,000
816,597;39025,121;  579,730;  611,000
817,163;38925,109;  578,160;  594,000
817,728;38645,129;  569,150;  578,000
818,294;38487,738;  578,170;  602,000
818,859;38550,031;  570,600;  622,000
819,425;38255,500;  579,090;  585,000
819,990;38417,148;  583,920;  595,000
820,555;38201,230;  603,620;  655,000
821,120;37978,289;  577,960;  621,000
821,686;37946,660;  586,480;  633,000
822,251;37750,980;  581,110;  640,000
822,816;37670,738;  587,610;  593,000
823,381;37570,879;  588,190;  615,000
823,946;37409,570;  585,800;  626,000
824,511;37249,621;  565,590;  602,000
825,076;37113,301;  571,180;  586,000
825,641;37018,102;  580,120;  602,000
826,206;36745,961;  573,660;  613,000
826,771;36548,949;  554,510;  587,000
827,335;36367,078;  544,900;  549,000
827,900;36423,391;  581,650;  609,000
828,465;36223,270;  574,270;  595,000
829,029;36089,219;  557,840;  588,000
829,594;35958,031;  572,830;  601,000
830,159;35700,762;  571,320;  604,000
830,723;35467,539;  578,940;  590,000
831,287;35387,078;  574,300;  611,000
831,852;35416,609;  574,800;  596,000
832,416;35166,570;  573,510;  582,000
832,981;35001,820;  586,520;  610,000
833,545;34777,109;  559,110;  591,000
834,109;34767,309;  571,300;  601,000
834,673;34627,129;  573,390;  616,000
835,238;34566,352;  584,770;  607,000
835,802;34442,762;  589,850;  613,000
836,366;34206,289;  583,490;  617,000
836,930;34213,359;  568,300;  604,000
837,494;34187,980;  587,950;  610,000
838,058;33942,309;  588,160;  619,000
838,622;33784,461;  579,750;  600,000
839,186;33738,750;  576,030;  602,000
839,749;33709,922;  552,960;  548,000
840,313;33692,672;  586,090;  591,000
840,877;33408,781;  584,060;  615,000
841,441;33324,602;  579,200;  630,000
842,004;33252,859;  587,980;  643,000
842,568;33122,852;  563,050;  604,000
843,131;33014,922;  570,360;  601,000
843,695;32897,512;  575,170;  589,000
844,258;32796,352;  578,800;  611,000
844,822;32645,551;  566,370;  583,000
845,385;32460,340;  555,760;  594,000
845,949;32418,881;  588,050;  596,000
846,512;32228,160;  575,230;  596,000
847,075;32137,230;  553,550;  561,000
847,638;32095,439;  585,020;  623,000
848,202;31883,830;  572,630;  599,000
848,765;31729,180;  568,040;  582,000
849,328;31663,670;  569,870;  584,000
849,891;31508,561;  590,660;  612,000
850,454;31397,900;  579,050;  601,000
851,017;31202,420;  579,870;  619,000
851,580;31175,010;  581,100;  615,000
852,143;30924,330;  557,540;  636,000
852,706;30776,650;  572,980;  616,000
853,268;30685,930;  577,850;  598,000
853,831;30594,580;  566,280;  589,000
854,394;30508,789;  556,910;  571,000
854,956;30301,029;  566,290;  580,000
855,519;30176,400;  581,460;  560,000
856,082;30001,869;  571,990;  601,000
856,644;29957,760;  587,550;  624,000
857,207;29709,609;  574,770;  605,000
857,769;29593,391;  567,390;  584,000
858,331;29357,529;  552,390;  596,000
858,894;29338,109;  575,820;  608,000
859,456;29123,189;  564,290;  604,000
860,018;29091,359;  582,210;  616,000
860,581;28844,170;  577,320;  596,000
861,143;28768,029;  560,230;  592,000
861,705;28473,471;  546,330;  560,000
862,267;28462,330;  579,310;  580,000
862,829;28234,240;  558,310;  576,000
863,391;28077,949;  555,600;  568,000
863,953;27936,109;  576,740;  612,000
864,515;27840,211;  571,070;  594,000
865,077;27579,471;  569,250;  600,000
865,639;27491,641;  583,410;  618,000
866,201;27364,551;  580,000;  606,000
866,762;27277,359;  571,330;  592,000
867,324;27055,539;  551,020;  597,000
867,886;26916,221;  570,880;  582,000
868,447;26863,721;  550,220;  573,000
869,009;26776,391;  562,080;  591,000
869,570;26735,930;  574,390;  610,000
870,132;26597,801;  582,820;  602,000
870,693;26549,391;  564,920;  591,000
871,255;26501,619;  550,310;  582,000
871,816;26503,020;  552,800;  567,000
872,377;26536,590;  565,100;  595,000
872,939;26460,500;  561,140;  607,000
873,500;26556,881;  562,640;  587,000
874,061;26596,631;  558,820;  583,000
874,622;26616,400;  576,190;  607,000
875,183;26653,410;  562,980;  611,000
875,744;26797,500;  566,130;  579,000
876,305;26726,461;  557,750;  587,000
876,866;26902,189;  578,840;  621,000
877,427;26980,480;  582,470;  579,000
877,988;26930,590;  557,050;  577,000
878,549;26989,920;  552,810;  571,000
879,110;27014,350;  572,680;  575,000
879,670;26986,080;  561,490;  580,000
880,231;26864,869;  549,100;  563,000
880,792;26921,301;  565,890;  590,000
881,352;26733,230;  552,480;  561,000
881,913;26740,910;  572,110;  603,000
882,474;26632,920;  583,920;  612,000
883,034;26512,000;  580,360;  595,000
883,594;26326,770;  560,000;  567,000
884,155;26131,840;  573,180;  566,000
884,715;26035,961;  572,280;  599,000
885,276;25885,320;  570,270;  590,000
885,836;25716,420;  559,800;  579,000
886,396;25598,840;  588,440;  603,000
886,956;25431,119;  569,850;  611,000
887,516;25370,891;  581,980;  587,000
888,076;25186,170;  572,730;  591,000
888,636;25008,221;  564,900;  587,000
889,196;24850,119;  582,840;  613,000
889,756;24742,301;  576,380;  591,000
890,316;24610,990;  585,020;  605,000
890,876;24470,510;  566,510;  581,000
891,436;24348,150;  587,290;  603,000
891,996;24221,430;  579,700;  598,000
892,555;24055,369;  580,610;  583,000
893,115;23976,029;  572,330;  590,000
893,675;23913,570;  583,370;  598,000
894,234;23684,920;  575,170;  599,000
894,794;23620,359;  581,130;  589,000
895,353;23565,529;  575,380;  617,000
895,913;23400,141;  589,970;  587,000
896,472;23259,660;  580,320;  609,000
897,032;23086,840;  583,000;  603,000
897,591;23018,150;  572,510;  550,000
898,150;22908,359;  596,260;  610,000
898,710;22803,381;  577,560;  599,000
899,269;22735,180;  583,960;  598,000
899,828;22572,490;  587,080;  611,000
900,387;22441,789;  569,790;  603,000
900,946;22426,439;  591,410;  627,000
901,505;22283,910;  569,420;  621,000
902,064;22180,730;  576,410;  595,000
902,623;22161,670;  583,020;  589,000
903,182;22007,770;  586,390;  603,000
903,741;21872,510;  567,450;  579,000
904,300;21785,000;  585,540;  620,000
904,858;21629,740;  579,400;  605,000
905,417;21466,619;  551,240;  562,000
905,976;21489,279;  588,770;  619,000
906,534;21337,770;  587,200;  591,000
907,093;21300,211;  576,360;  616,000
907,652;21075,461;  579,890;  596,000
908,210;20977,680;  565,860;  575,000
908,768;20926,020;  575,810;  579,000
909,327;20739,590;  561,540;  537,000
909,885;20737,670;  575,000;  638,000
910,444;20550,420;  572,400;  588,000
911,002;20475,240;  591,520;  599,000
911,560;20357,250;  586,910;  615,000
912,118;20302,830;  595,080;  626,000
912,676;20191,311;  590,730;  611,000
913,234;20111,660;  581,650;  590,000
913,792;19899,039;  576,960;  605,000
914,350;19833,000;  577,840;  591,000
914,908;19733,051;  597,470;  637,000
915,466;19513,160;  562,410;  557,000
916,024;19458,439;  584,200;  595,000
916,582;19354,869;  560,820;  574,000
917,140;19289,590;  578,690;  601,000
917,698;19163,350;  599,790;  610,000
918,255;19021,359;  591,670;  616,000
918,813;18865,109;  549,440;  557,000
919,370;18812,730;  584,220;  581,000
919,928;18745,420;  574,540;  584,000
920,486;18692,410;  589,540;  639,000
921,043;18491,270;  573,630;  612,000
921,600;18356,590;  578,170;  598,000
922,158;18324,730;  588,300;  602,000
922,715;18151,500;  585,570;  608,000
923,272;18128,711;  605,240;  609,000
923,830;17925,080;  587,610;  602,000
924,387;17851,250;  585,240;  593,000
924,944;17757,170;  590,890;  615,000
925,501;17618,250;  584,520;  618,000
926,058;17470,471;  568,460;  572,000
926,615;17384,891;  568,030;  571,000
927,172;17275,211;  586,880;  604,000
927,729;17188,600;  577,070;  615,000
928,286;16994,580;  587,560;  615,000
928,843;16884,160;  568,250;  596,000
929,400;16784,109;  581,680;  623,000
929,956;16643,109;  579,430;  590,000
930,513;16491,170;  579,410;  593,000
931,070;16375,500;  575,550;  591,000
931,626;16250,800;  576,350;  592,000
932,183;16130,440;  569,250;  579,000
932,739;15964,780;  571,040;  597,000
933,296;15919,720;  575,490;  570,000
933,852;15741,010;  561,790;  613,000
934,409;15662,160;  574,780;  614,000
934,965;15515,250;  569,740;  595,000
935,521;15417,520;  598,570;  608,000
936,078;15279,450;  590,590;  607,000
936,634;15147,150;  559,030;  558,000
937,190;15037,160;  553,370;  581,000
937,746;14959,930;  582,890;  591,000
938,302;14872,400;  577,240;  610,000
938,858;14750,520;  565,780;  579,000
939,414;14589,580;  584,900;  585,000
939,970;14534,130;  595,750;  596,000
940,526;14344,210;  567,570;  583,000
941,082;14278,270;  574,150;  591,000
941,638;14105,450;  566,810;  571,000
942,193;14003,690;  572,330;  562,000
942,749;13889,990;  599,800;  602,000
943,305;13722,730;  581,850;  591,000
943,860;13637,050;  586,960;  585,000
944,416;13540,470;  579,580;  585,000
944,972;13379,800;  572,930;  585,000
945,527;13283,420;  597,760;  621,000
946,082;13135,890;  590,880;  601,000
946,638;12982,560;  587,280;  596,000
947,193;12862,670;  587,270;  598,000
947,749;12748,690;  603,280;  630,000
948,304;12649,370;  591,010;  610,000
948,859;12479,060;  590,090;  610,000
949,414;12334,000;  590,420;  618,000
949,969;12246,720;  616,440;  651,000
950,524;12073,970;  594,410;  603,000
951,079;11915,640;  573,270;  593,000
951,634;11791,050;  591,590;  609,000
952,189;11683,450;  598,410;  625,000
952,744;11554,330;  586,250;  587,000
953,299;11406,550;  594,550;  609,000
953,854;11239,440;  604,860;  636,000
954,409;11147,920;  607,040;  646,000
954,963;10989,600;  594,170;  594,000
955,518;10817,500;  589,980;  583,000
956,073;10742,920;  606,410;  624,000
956,627;10572,040;  613,060;  656,000
957,182;10451,030;  616,080;  633,000
957,736;10338,230;  593,200;  623,000
958,291;10203,720;  581,220;  587,000
958,845;10075,960;  604,850;  634,000
959,399; 9981,270;  589,190;  620,000
959,954; 9883,800;  588,620;  612,000
960,508; 9817,130;  609,750;  613,000
961,062; 9680,630;  595,360;  607,000
961,616; 9614,750;  616,580;  691,000
962,170; 9548,750;  598,610;  626,000
962,725; 9496,770;  611,400;  626,000
963,279; 9357,940;  599,130;  600,000
963,833; 9263,810;  608,670;  649,000
964,387; 9198,500;  596,840;  613,000
964,940; 9185,650;  620,380;  637,000
965,494; 9100,540;  607,340;  623,000
966,048; 9038,630;  617,490;  646,000
966,602; 8989,590;  613,870;  618,000
967,156; 8885,910;  587,620;  616,000
967,709; 8854,420;  612,660;  648,000
968,263; 8799,780;  611,830;  645,000
968,816; 8730,940;  621,450;  649,000
969,370; 8655,430;  604,320;  629,000
969,923; 8592,590;  600,170;  612,000
970,477; 8517,980;  588,260;  624,000
971,030; 8554,730;  651,350;  708,000
971,584; 8424,160;  606,730;  632,000
972,137; 8397,800;  608,160;  632,000
972,690; 8377,630;  633,500;  648,000
973,243; 8264,580;  603,670;  632,000
973,797; 8251,670;  628,580;  660,000
974,350; 8147,680;  586,240;  624,000
974,903; 8111,640;  614,000;  646,000
975,456; 8048,250;  606,470;  656,000
976,009; 7999,580;  607,020;  636,000
976,562; 7939,350;  606,400;  640,000
977,115; 7879,830;  591,730;  598,000
977,667; 7847,050;  615,210;  637,000
978,220; 7803,530;  609,350;  640,000
978,773; 7697,980;  587,870;  616,000
979,326; 7681,790;  614,100;  644,000
979,878; 7606,070;  582,810;  597,000
980,431; 7568,250;  598,440;  636,000
980,983; 7523,710;  590,010;  626,000
981,536; 7495,950;  604,700;  618,000
982,088; 7452,230;  594,740;  606,000
982,641; 7391,220;  605,750;  638,000
983,193; 7359,060;  616,090;  674,000
983,746; 7284,590;  586,200;  623,000
984,298; 7229,820;  604,420;  631,000
984,850; 7166,880;  583,950;  599,000
985,402; 7131,420;  598,760;  611,000
985,954; 7092,950;  580,920;  607,000
986,506; 7058,790;  590,000;  591,000
987,059; 7011,360;  583,990;  589,000
987,611; 6968,580;  574,550;  599,000
988,163; 6931,180;  587,140;  591,000
988,714; 6895,530;  579,860;  593,000
989,266; 6831,840;  608,060;  625,000
989,818; 6807,230;  592,510;  582,000
990,370; 6745,760;  579,430;  595,000
990,922; 6704,830;  574,760;  601,000
991,473; 6661,100;  592,410;  606,000
992,025; 6665,900;  598,480;  638,000
992,577; 6599,330;  597,870;  623,000
993,128; 6586,680;  612,550;  633,000
993,680; 6500,440;  583,130;  616,000
994,231; 6466,560;  586,480;  581,000
994,782; 6424,790;  579,240;  595,000
995,334; 6389,930;  589,090;  615,000
995,885; 6342,140;  583,640;  614,000
996,436; 6331,500;  586,790;  602,000
996,988; 6275,640;  590,240;  622,000
997,539; 6210,110;  574,220;  591,000
998,090; 6186,370;  595,320;  647,000
998,641; 6138,570;  594,270;  611,000
999,192; 6089,620;  580,290;  617,000
999,743; 6076,590;  588,210;  615,000
1000,294; 6048,310;  619,160;  651,000
1000,845; 6009,570;  600,730;  643,000
1001,396; 5938,680;  579,730;  597,000
1001,947; 5905,430;  576,210;  610,000
1002,497; 5859,790;  586,170;  597,000
1003,048; 5820,190;  588,000;  615,000
1003,599; 5789,050;  585,260;  607,000
1004,149; 5756,180;  597,250;  618,000
1004,700; 5696,340;  576,090;  593,000
1005,250; 5661,120;  578,280;  604,000
1005,801; 5627,480;  573,630;  597,000
1006,351; 5625,410;  620,410;  661,000
1006,902; 5575,090;  599,230;  617,000
1007,452; 5543,550;  603,380;  612,000
1008,002; 5475,780;  596,840;  620,000
1008,553; 5449,090;  596,290;  646,000
1009,103; 5435,830;  606,130;  642,000
1009,653; 5361,230;  586,640;  614,000
1010,203; 5345,130;  588,810;  602,000
1010,753; 5330,570;  598,970;  622,000
1011,303; 5273,790;  604,770;  629,000
1011,853; 5228,420;  586,610;  635,000
1012,403; 5193,820;  590,770;  611,000
1012,953; 5167,970;  594,240;  617,000
1013,503; 5135,490;  588,980;  609,000
1014,052; 5083,540;  586,610;  614,000
1014,602; 5040,280;  577,900;  593,000
1015,152; 4971,170;  555,750;  581,000
1015,702; 4953,000;  571,030;  586,000
1016,251; 4926,190;  574,760;  600,000
1016,801; 4906,670;  588,450;  617,000
1017,350; 4851,270;  580,180;  624,000
1017,900; 4830,920;  581,660;  604,000
1018,449; 4790,430;  578,420;  607,000
1018,998; 4767,830;  587,130;  614,000
1019,548; 4738,170;  587,130;  622,000
1020,097; 4689,690;  576,990;  594,000
1020,646; 4672,540;  582,160;  596,000
1021,195; 4634,040;  574,770;  605,000
1021,744; 4622,470;  591,080;  625,000
1022,294; 4592,160;  591,620;  591,000
1022,843; 4569,700;  580,380;  595,000
1023,392; 4523,220;  566,130;  624,000
1023,940; 4546,690;  612,680;  622,000
1024,489; 4491,570;  587,460;  622,000
1025,038; 4450,300;  579,210;  623,000
1025,587; 4441,490;  580,630;  589,000
1026,136; 4423,100;  581,320;  610,000
1026,684; 4380,890;  573,740;  623,000
1027,233; 4363,460;  570,010;  575,000
1027,782; 4324,980;  564,620;  575,000
1028,330; 4307,790;  575,780;  610,000
1028,879; 4281,980;  591,540;  635,000
1029,427; 4230,670;  566,950;  577,000
1029,976; 4236,250;  582,260;  611,000
1030,524; 4174,020;  568,830;  593,000
1031,072; 4165,360;  598,370;  609,000
1031,621; 4124,290;  586,410;  621,000
1032,169; 4103,940;  608,510;  626,000
1032,717; 4055,930;  597,150;  653,000
1033,265; 4039,230;  619,620;  636,000
1033,813; 3976,500;  587,690;  608,000
1034,361; 3934,900;  598,180;  624,000
1034,909; 3932,420;  602,990;  625,000
1035,457; 3895,430;  612,930;  630,000
1036,005; 3860,270;  616,740;  642,000
1036,553; 3802,910;  607,960;  642,000
1037,101; 3760,000;  590,160;  612,000
1037,649; 3732,940;  594,710;  596,000
1038,196; 3699,850;  592,520;  615,000
1038,744; 3684,370;  611,350;  615,000
1039,292; 3618,610;  580,420;  589,000
1039,839; 3600,040;  595,040;  618,000
1040,387; 3554,360;  597,180;  630,000
1040,934; 3514,840;  584,450;  619,000
1041,482; 3531,070;  625,750;  665,000
1042,029; 3466,820;  599,360;  626,000
1042,576; 3425,200;  591,430;  609,000
1043,124; 3408,530;  602,780;  639,000
1043,671; 3354,820;  597,270;  617,000
1044,218; 3345,080;  608,820;  636,000
1044,765; 3299,730;  592,900;  639,000
1045,312; 3302,360;  614,010;  630,000
1045,859; 3244,000;  597,060;  657,000
1046,406; 3186,970;  583,350;  614,000
1046,953; 3180,710;  595,790;  634,000
1047,500; 3125,010;  591,920;  613,000
1048,047; 3111,090;  601,120;  625,000
1048,594; 3073,690;  592,850;  604,000
1049,141; 3053,190;  596,190;  629,000
1049,687; 3029,790;  611,970;  625,000
1050,234; 2996,060;  600,340;  622,000
1050,781; 2975,490;  604,970;  616,000
1051,327; 2929,830;  595,310;  610,000
1051,874; 2893,310;  593,500;  602,000
1052,420; 2873,670;  598,930;  618,000
1052,966; 2858,910;  601,890;  621,000
1053,513; 2825,290;  610,010;  624,000
1054,059; 2811,540;  612,400;  619,000
1054,605; 2766,240;  602,100;  593,000
1055,152; 2726,380;  595,530;  621,000
1055,698; 2698,060;  592,370;  624,000
1056,244; 2671,920;  588,530;  646,000
1056,790; 2660,300;  608,620;  651,000
1057,336; 2637,660;  608,260;  640,000
1057,882; 2616,060;  609,640;  610,000
1058,428; 2544,420;  569,690;  610,000
1058,974; 2542,710;  607,100;  611,000
1059,520; 2526,730;  610,340;  619,000
1060,066; 2510,620;  619,510;  656,000
1060,611; 2475,080;  624,500;  669,000
1061,157; 2414,140;  584,970;  627,000
1061,703; 2417,620;  604,190;  619,000
1062,248; 2394,190;  619,710;  661,000
1062,794; 2352,620;  607,020;  634,000
1063,339; 2312,680;  589,620;  584,000
1063,885; 2315,190;  622,640;  639,000
1064,430; 2266,300;  597,680;  605,000
1064,976; 2248,560;  607,660;  620,000
1065,521; 2233,900;  608,930;  609,000
1066,066; 2208,070;  611,370;  638,000
1066,612; 2176,730;  607,990;  623,000
1067,157; 2156,090;  604,640;  634,000
1067,702; 2115,980;  588,190;  620,000
1068,247; 2110,460;  614,510;  660,000
1068,792; 2085,940;  603,530;  633,000
1069,337; 2062,700;  602,250;  615,000
1069,882; 2012,560;  576,290;  615,000
1070,427; 2026,560;  609,130;  626,000
1070,972; 1997,610;  602,140;  624,000
1071,517; 1981,910;  605,340;  626,000
1072,061; 1973,900;  615,860;  633,000
1072,606; 1961,910;  612,720;  637,000
1073,151; 1930,510;  610,310;  627,000
1073,695; 1912,980;  617,100;  636,000
1074,240; 1887,110;  603,490;  619,000
1074,784; 1877,920;  611,310;  646,000
1075,329; 1864,960;  620,010;  656,000
1075,873; 1822,540;  595,330;  613,000
1076,418; 1848,700;  634,680;  648,000
1076,962; 1811,780;  616,400;  631,000
1077,506; 1779,990;  606,590;  633,000
1078,050; 1756,770;  595,930;  620,000
1078,595; 1762,330;  618,470;  672,000
1079,139; 1733,270;  604,330;  648,000
1079,683; 1742,970;  628,340;  641,000
1080,227; 1656,650;  569,600;  600,000
1080,771; 1702,210;  622,790;  644,000
1081,315; 1677,060;  613,000;  652,000
1081,859; 1661,860;  609,900;  644,000
1082,402; 1631,480;  608,740;  632,000
1082,946; 1645,530;  633,150;  676,000
1083,490; 1636,310;  629,670;  654,000
1084,034; 1606,920;  620,370;  644,000
1084,577; 1602,680;  627,880;  622,000
1085,121; 1582,900;  620,570;  646,000
1085,665; 1575,960;  627,140;  646,000
1086,208; 1549,560;  618,090;  629,000
1086,751; 1530,970;  616,220;  654,000
1087,295; 1508,140;  605,530;  639,000
1087,838; 1516,770;  630,200;  629,000
1088,382; 1488,060;  613,010;  645,000
1088,925; 1465,640;  606,230;  624,000
1089,468; 1471,430;  618,940;  659,000
1090,011; 1474,950;  633,930;  675,000
1090,554; 1420,470;  595,150;  644,000
1091,097; 1443,900;  629,560;  650,000
1091,640; 1421,540;  621,290;  650,000
1092,183; 1419,100;  642,810;  643,000
1092,726; 1381,680;  614,240;  639,000
1093,269; 1385,630;  625,620;  646,000
1093,812; 1380,350;  633,440;  651,000
1094,355; 1358,990;  623,730;  647,000
1094,897; 1357,190;  634,570;  663,000
1095,440; 1354,410;  648,750;  677,000
1095,983; 1298,560;  601,910;  619,000
1096,525; 1319,830;  638,350;  701,000
1097,068; 1293,610;  624,200;  663,000
1097,610; 1302,560;  638,610;  673,000
1098,153; 1264,400;  616,070;  648,000
1098,695; 1242,550;  606,970;  651,000
1099,238; 1254,820;  628,790;  642,000
1099,780; 1231,530;  612,770;  627,000
1100,322; 1233,910;  624,070;  660,000

